6.211100000000000000e+04,4.007000000000000000e+03
6.213100000000000000e+04,4.006000000000000000e+03
6.215100000000000000e+04,3.997000000000000000e+03
6.217100000000000000e+04,4.000000000000000000e+03
6.219100000000000000e+04,4.023000000000000000e+03
6.221100000000000000e+04,4.033000000000000000e+03
6.223100000000000000e+04,4.086000000000000000e+03
6.225100000000000000e+04,4.099000000000000000e+03
6.227100000000000000e+04,4.147000000000000000e+03
6.229100000000000000e+04,4.158000000000000000e+03
6.231100000000000000e+04,4.158000000000000000e+03
6.233100000000000000e+04,4.157000000000000000e+03
6.235100000000000000e+04,4.167000000000000000e+03
6.237100000000000000e+04,4.159000000000000000e+03
6.239100000000000000e+04,4.160000000000000000e+03
6.241100000000000000e+04,4.147000000000000000e+03
6.243100000000000000e+04,4.142000000000000000e+03
6.245100000000000000e+04,4.131000000000000000e+03
6.247100000000000000e+04,4.129000000000000000e+03
6.249100000000000000e+04,4.122000000000000000e+03
6.251100000000000000e+04,4.121000000000000000e+03
6.253100000000000000e+04,4.121000000000000000e+03
6.255100000000000000e+04,4.110000000000000000e+03
6.257100000000000000e+04,4.106000000000000000e+03
6.259100000000000000e+04,4.095000000000000000e+03
6.261100000000000000e+04,4.086000000000000000e+03
6.263100000000000000e+04,4.076000000000000000e+03
6.265100000000000000e+04,4.063000000000000000e+03
6.267100000000000000e+04,4.044000000000000000e+03
6.269100000000000000e+04,4.037000000000000000e+03
6.271100000000000000e+04,4.015000000000000000e+03
6.273100000000000000e+04,4.003000000000000000e+03
6.275200000000000000e+04,3.970000000000000000e+03
6.277200000000000000e+04,3.964000000000000000e+03
6.279200000000000000e+04,3.951000000000000000e+03
6.281200000000000000e+04,3.948000000000000000e+03
6.283200000000000000e+04,3.940000000000000000e+03
6.285200000000000000e+04,3.939000000000000000e+03
6.287200000000000000e+04,3.935000000000000000e+03
6.289200000000000000e+04,3.929000000000000000e+03
6.291200000000000000e+04,3.932000000000000000e+03
6.293200000000000000e+04,3.927000000000000000e+03
6.295200000000000000e+04,3.920000000000000000e+03
6.297200000000000000e+04,3.917000000000000000e+03
6.299200000000000000e+04,3.964000000000000000e+03
6.301200000000000000e+04,3.973000000000000000e+03
6.303200000000000000e+04,4.048000000000000000e+03
6.305200000000000000e+04,4.046000000000000000e+03
6.307200000000000000e+04,4.104000000000000000e+03
6.309200000000000000e+04,4.091000000000000000e+03
6.311200000000000000e+04,4.106000000000000000e+03
6.313200000000000000e+04,4.097000000000000000e+03
6.315200000000000000e+04,4.091000000000000000e+03
6.317200000000000000e+04,4.081000000000000000e+03
6.319200000000000000e+04,4.079000000000000000e+03
6.321200000000000000e+04,4.065000000000000000e+03
6.323200000000000000e+04,4.072000000000000000e+03
6.325200000000000000e+04,4.047000000000000000e+03
6.327200000000000000e+04,4.064000000000000000e+03
6.329200000000000000e+04,4.047000000000000000e+03
6.331200000000000000e+04,4.064000000000000000e+03
6.333200000000000000e+04,4.059000000000000000e+03
6.335200000000000000e+04,4.052000000000000000e+03
6.337200000000000000e+04,4.054000000000000000e+03
6.339200000000000000e+04,4.048000000000000000e+03
6.341200000000000000e+04,4.038000000000000000e+03
6.343200000000000000e+04,4.039000000000000000e+03
6.345200000000000000e+04,4.034000000000000000e+03
6.347200000000000000e+04,4.026000000000000000e+03
6.349200000000000000e+04,4.024000000000000000e+03
6.351200000000000000e+04,4.012000000000000000e+03
6.353200000000000000e+04,4.008000000000000000e+03
6.355200000000000000e+04,3.990000000000000000e+03
6.357200000000000000e+04,3.988000000000000000e+03
6.359200000000000000e+04,3.973000000000000000e+03
6.361200000000000000e+04,3.971000000000000000e+03
6.363200000000000000e+04,3.950000000000000000e+03
6.365200000000000000e+04,3.961000000000000000e+03
6.367200000000000000e+04,3.953000000000000000e+03
6.369200000000000000e+04,3.963000000000000000e+03
6.371200000000000000e+04,3.947000000000000000e+03
6.373200000000000000e+04,3.955000000000000000e+03
6.375200000000000000e+04,3.933000000000000000e+03
6.377200000000000000e+04,3.938000000000000000e+03
6.379200000000000000e+04,3.914000000000000000e+03
6.381200000000000000e+04,3.918000000000000000e+03
6.383200000000000000e+04,3.924000000000000000e+03
6.385200000000000000e+04,3.950000000000000000e+03
6.387200000000000000e+04,4.022000000000000000e+03
6.389200000000000000e+04,4.062000000000000000e+03
6.391200000000000000e+04,4.137000000000000000e+03
6.393200000000000000e+04,4.161000000000000000e+03
6.395200000000000000e+04,4.217000000000000000e+03
6.397200000000000000e+04,4.227000000000000000e+03
6.399200000000000000e+04,4.242000000000000000e+03
6.401200000000000000e+04,4.252000000000000000e+03
6.403200000000000000e+04,4.305000000000000000e+03
6.405200000000000000e+04,4.340000000000000000e+03
6.407200000000000000e+04,8.634000000000000000e+03
6.409200000000000000e+04,1.196700000000000000e+04
6.411200000000000000e+04,3.017900000000000000e+04
6.413200000000000000e+04,3.121200000000000000e+04
6.415200000000000000e+04,3.223800000000000000e+04
6.417200000000000000e+04,3.236900000000000000e+04
6.419200000000000000e+04,3.258100000000000000e+04
6.421200000000000000e+04,3.261400000000000000e+04
6.423200000000000000e+04,3.262500000000000000e+04
6.425200000000000000e+04,3.262000000000000000e+04
6.427200000000000000e+04,3.262700000000000000e+04
6.429200000000000000e+04,3.262500000000000000e+04
6.431200000000000000e+04,3.262900000000000000e+04
6.433200000000000000e+04,3.263100000000000000e+04
6.435200000000000000e+04,3.263000000000000000e+04
6.437200000000000000e+04,3.263100000000000000e+04
6.439200000000000000e+04,3.263300000000000000e+04
6.441200000000000000e+04,3.262900000000000000e+04
6.443200000000000000e+04,3.263500000000000000e+04
6.445200000000000000e+04,3.263000000000000000e+04
6.447200000000000000e+04,3.262800000000000000e+04
6.449200000000000000e+04,3.263000000000000000e+04
6.451200000000000000e+04,3.263100000000000000e+04
6.453200000000000000e+04,3.262000000000000000e+04
6.455200000000000000e+04,3.263000000000000000e+04
6.457200000000000000e+04,3.263100000000000000e+04
6.459200000000000000e+04,3.263300000000000000e+04
6.461200000000000000e+04,3.263200000000000000e+04
6.463200000000000000e+04,3.263100000000000000e+04
6.465200000000000000e+04,3.263300000000000000e+04
6.467200000000000000e+04,3.263100000000000000e+04
6.469200000000000000e+04,3.262900000000000000e+04
6.471200000000000000e+04,3.263200000000000000e+04
6.473200000000000000e+04,3.263200000000000000e+04
6.475200000000000000e+04,3.263100000000000000e+04
6.477200000000000000e+04,3.263000000000000000e+04
6.479200000000000000e+04,3.263000000000000000e+04
6.481200000000000000e+04,3.263300000000000000e+04
6.483200000000000000e+04,3.263000000000000000e+04
6.485200000000000000e+04,3.263200000000000000e+04
6.487200000000000000e+04,3.263400000000000000e+04
6.489200000000000000e+04,3.263200000000000000e+04
6.491200000000000000e+04,3.263300000000000000e+04
6.493200000000000000e+04,3.263200000000000000e+04
6.495200000000000000e+04,3.263800000000000000e+04
6.497200000000000000e+04,3.263100000000000000e+04
6.499200000000000000e+04,3.263700000000000000e+04
6.501200000000000000e+04,3.263300000000000000e+04
6.503200000000000000e+04,3.263400000000000000e+04
6.505200000000000000e+04,3.263000000000000000e+04
6.507200000000000000e+04,3.263200000000000000e+04
6.509200000000000000e+04,3.263300000000000000e+04
6.511200000000000000e+04,3.263000000000000000e+04
6.513200000000000000e+04,3.263100000000000000e+04
6.515200000000000000e+04,3.263000000000000000e+04
6.517200000000000000e+04,3.262700000000000000e+04
6.519200000000000000e+04,3.263400000000000000e+04
6.521200000000000000e+04,3.263300000000000000e+04
6.523200000000000000e+04,3.263200000000000000e+04
6.525200000000000000e+04,3.263100000000000000e+04
6.527200000000000000e+04,3.262900000000000000e+04
6.529200000000000000e+04,3.263200000000000000e+04
6.531200000000000000e+04,3.263000000000000000e+04
6.533200000000000000e+04,3.263200000000000000e+04
6.535200000000000000e+04,3.262800000000000000e+04
6.537200000000000000e+04,3.262200000000000000e+04
6.539200000000000000e+04,3.262700000000000000e+04
6.541200000000000000e+04,3.262700000000000000e+04
6.543200000000000000e+04,3.263400000000000000e+04
6.545200000000000000e+04,3.262900000000000000e+04
6.547200000000000000e+04,3.262700000000000000e+04
6.549200000000000000e+04,3.263000000000000000e+04
6.551200000000000000e+04,3.263500000000000000e+04
6.553200000000000000e+04,3.263100000000000000e+04
6.555200000000000000e+04,3.263500000000000000e+04
6.557200000000000000e+04,3.263200000000000000e+04
6.559200000000000000e+04,3.263200000000000000e+04
6.561200000000000000e+04,3.263200000000000000e+04
6.563200000000000000e+04,3.263400000000000000e+04
6.565200000000000000e+04,3.263000000000000000e+04
6.567200000000000000e+04,3.263300000000000000e+04
6.569200000000000000e+04,3.263500000000000000e+04
6.571200000000000000e+04,3.263300000000000000e+04
6.573200000000000000e+04,3.263700000000000000e+04
6.575200000000000000e+04,3.263400000000000000e+04
6.577200000000000000e+04,3.263200000000000000e+04
6.579200000000000000e+04,3.263400000000000000e+04
6.581200000000000000e+04,3.263100000000000000e+04
6.583200000000000000e+04,3.262600000000000000e+04
6.585200000000000000e+04,3.263400000000000000e+04
6.587200000000000000e+04,3.263300000000000000e+04
6.589200000000000000e+04,3.263100000000000000e+04
6.591200000000000000e+04,3.263300000000000000e+04
6.593200000000000000e+04,3.262900000000000000e+04
6.595200000000000000e+04,3.263400000000000000e+04
6.597200000000000000e+04,3.263400000000000000e+04
6.599200000000000000e+04,3.263200000000000000e+04
6.601200000000000000e+04,3.263200000000000000e+04
6.603200000000000000e+04,3.263700000000000000e+04
6.605200000000000000e+04,3.263000000000000000e+04
6.607200000000000000e+04,3.263600000000000000e+04
6.609200000000000000e+04,3.263200000000000000e+04
6.611200000000000000e+04,3.264100000000000000e+04
6.613200000000000000e+04,3.263300000000000000e+04
6.615200000000000000e+04,3.263300000000000000e+04
6.617200000000000000e+04,3.263300000000000000e+04
6.619200000000000000e+04,3.263300000000000000e+04
6.621200000000000000e+04,3.263200000000000000e+04
6.623200000000000000e+04,3.263200000000000000e+04
6.625200000000000000e+04,3.263500000000000000e+04
6.627200000000000000e+04,3.263500000000000000e+04
6.629200000000000000e+04,3.262900000000000000e+04
6.631200000000000000e+04,3.263100000000000000e+04
6.633200000000000000e+04,3.263100000000000000e+04
6.635200000000000000e+04,3.263300000000000000e+04
6.637200000000000000e+04,3.263000000000000000e+04
6.639200000000000000e+04,3.263500000000000000e+04
6.641200000000000000e+04,3.263500000000000000e+04
6.643200000000000000e+04,3.262900000000000000e+04
6.645200000000000000e+04,3.263400000000000000e+04
6.647200000000000000e+04,3.263100000000000000e+04
6.649200000000000000e+04,3.262100000000000000e+04
6.651200000000000000e+04,3.262700000000000000e+04
6.653200000000000000e+04,3.262500000000000000e+04
6.655200000000000000e+04,3.262800000000000000e+04
6.657200000000000000e+04,3.263200000000000000e+04
6.659200000000000000e+04,3.263200000000000000e+04
6.661200000000000000e+04,3.263500000000000000e+04
6.663200000000000000e+04,3.263800000000000000e+04
6.665200000000000000e+04,3.263000000000000000e+04
6.667200000000000000e+04,3.264000000000000000e+04
6.669200000000000000e+04,3.263200000000000000e+04
6.671200000000000000e+04,3.264500000000000000e+04
6.673200000000000000e+04,3.262900000000000000e+04
6.675200000000000000e+04,3.264400000000000000e+04
6.677200000000000000e+04,3.263300000000000000e+04
6.679200000000000000e+04,3.263100000000000000e+04
6.681200000000000000e+04,3.263100000000000000e+04
6.683200000000000000e+04,3.264500000000000000e+04
6.685200000000000000e+04,3.263200000000000000e+04
6.687200000000000000e+04,3.264700000000000000e+04
6.689300000000000000e+04,3.263200000000000000e+04
6.691300000000000000e+04,3.264600000000000000e+04
6.693300000000000000e+04,3.263400000000000000e+04
6.695300000000000000e+04,3.264000000000000000e+04
6.697300000000000000e+04,3.263300000000000000e+04
6.699300000000000000e+04,3.263700000000000000e+04
6.701300000000000000e+04,3.263200000000000000e+04
6.703300000000000000e+04,3.263900000000000000e+04
6.705300000000000000e+04,3.263300000000000000e+04
6.707300000000000000e+04,3.263000000000000000e+04
6.709300000000000000e+04,3.263200000000000000e+04
